time[s],value[g],targetTime[g],target[g]
3.0994415283203125e-05,0.0,0.0,100.0
0.08396506309509277,0.0,0.1,100.0
0.168565034866333,0.0,0.2,100.0
0.2536308765411377,0.0,0.3,100.0
0.3439171314239502,0.0,0.4,100.0
0.4280509948730469,0.0,0.5,100.0
0.5160980224609375,0.0,0.6,100.0
0.6166179180145264,0.0,0.7,100.0
0.7166659832000732,0.0,0.8,100.0
0.8158359527587891,0.0,0.9,100.0
0.9167490005493164,0.0,1.0,100.0
1.015707015991211,0.0,1.1,100.0
1.1159460544586182,0.0,1.2,100.0
1.2166600227355957,0.0,1.3,100.0
1.316687822341919,0.0,1.4,100.0
1.4172561168670654,0.0,1.5,100.0
1.516528844833374,0.0,1.6,100.0
1.6167049407958984,0.0,1.7,100.0
1.7166898250579834,0.0,1.8,100.0
1.8166229724884033,0.0,1.9,100.0
1.9168589115142822,8.0,2.0,100.0
2.016329050064087,21.0,2.1,100.0
2.1166980266571045,32.0,2.2,100.0
2.2166390419006348,47.0,2.3,100.0
2.3156559467315674,64.0,2.4,100.0
2.4166219234466553,83.0,2.5,100.0
2.5161080360412598,106.0,2.6,100.0
2.6166470050811768,116.0,2.7,100.0
2.7166621685028076,125.0,2.8,100.0
2.816802978515625,131.0,2.9,100.0
2.916640043258667,133.0,3.0,100.0
3.0160269737243652,133.0,3.1,100.0
3.1166908740997314,131.0,3.2,100.0
3.2165939807891846,129.0,3.3,100.0
3.3166239261627197,127.0,3.4,100.0
3.416611909866333,125.0,3.5,100.0
3.5159008502960205,119.0,3.6,100.0
3.6166329383850098,117.0,3.7,100.0
3.7164528369903564,114.0,3.8,100.0
3.816596031188965,104.0,3.9,100.0
3.9166219234466553,104.0,4.0,100.0
4.016628980636597,104.0,4.1,100.0
4.11592698097229,106.0,4.2,100.0
4.216649055480957,108.0,4.3,100.0
4.316622018814087,108.0,4.4,100.0
4.416608095169067,110.0,4.5,100.0
4.516640901565552,108.0,4.6,100.0
4.616521120071411,110.0,4.7,100.0
4.7166149616241455,110.0,4.8,100.0
4.816606044769287,110.0,4.9,100.0
4.916604995727539,110.0,5.0,100.0
5.016619920730591,108.0,5.1,100.0
5.116719961166382,108.0,5.2,100.0
5.216526031494141,108.0,5.3,100.0
5.3165669441223145,108.0,5.4,100.0
5.41658616065979,108.0,5.5,100.0
5.516029119491577,108.0,5.6,100.0
5.615653038024902,106.0,5.7,100.0
5.716602087020874,108.0,5.8,100.0
5.8158228397369385,104.0,5.9,100.0
5.916658163070679,104.0,6.0,100.0
6.015937089920044,102.0,6.1,100.0
6.115639925003052,102.0,6.2,100.0
6.216593980789185,102.0,6.3,100.0
6.316627025604248,98.0,6.4,100.0
6.416604042053223,100.0,6.5,100.0
6.516589879989624,98.0,6.6,100.0
6.616611957550049,97.0,6.7,100.0
6.716583013534546,98.0,6.8,100.0
6.8166749477386475,98.0,6.9,100.0
6.916592836380005,100.0,7.0,100.0
7.0158350467681885,102.0,7.1,100.0
7.115835905075073,102.0,7.2,100.0
7.216585874557495,104.0,7.3,100.0
7.3165669441223145,108.0,7.4,100.0
7.41570782661438,108.0,7.5,100.0
7.5165770053863525,106.0,7.6,100.0
7.61557412147522,108.0,7.7,100.0
7.7165210247039795,108.0,7.8,100.0
7.81656813621521,108.0,7.9,100.0
7.916501998901367,108.0,8.0,100.0
8.016534090042114,108.0,8.1,100.0
8.116729974746704,108.0,8.2,100.0
8.21685004234314,110.0,8.3,100.0
8.316569089889526,110.0,8.4,100.0
8.415540933609009,110.0,8.5,100.0
8.51560091972351,110.0,8.6,100.0
8.616549968719482,112.0,8.7,100.0
8.716439962387085,114.0,8.8,100.0
8.816518068313599,112.0,8.9,100.0
8.915617942810059,110.0,9.0,100.0
9.015618085861206,110.0,9.1,100.0
9.116621017456055,108.0,9.2,100.0
9.21589994430542,108.0,9.3,100.0
9.316517114639282,108.0,9.4,100.0
9.416671991348267,106.0,9.5,100.0
9.515503168106079,104.0,9.6,100.0
9.616501092910767,104.0,9.7,100.0
9.716533899307251,104.0,9.8,100.0
9.81650710105896,102.0,9.9,100.0
9.916504144668579,102.0,10.0,100.0
10.01649785041809,102.0,10.1,100.0
10.116493940353394,98.0,10.2,100.0
10.21652102470398,100.0,10.3,100.0
10.316438913345337,102.0,10.4,100.0
10.416453123092651,104.0,10.5,100.0
10.516503095626831,106.0,10.6,100.0
10.616441011428833,106.0,10.7,100.0
10.71648383140564,106.0,10.8,100.0
10.81552004814148,108.0,10.9,100.0
10.916446924209595,117.0,11.0,100.0
11.01669716835022,119.0,11.1,100.0
11.116498947143555,121.0,11.2,100.0
11.216500997543335,123.0,11.3,100.0
11.316483974456787,123.0,11.4,100.0
11.416539907455444,123.0,11.5,100.0
11.515689134597778,121.0,11.6,100.0
11.616520166397095,121.0,11.7,101.0
11.716477155685425,121.0,11.8,102.0
11.81575083732605,119.0,11.9,103.0
11.916518926620483,116.0,12.0,104.0
12.015728950500488,114.0,12.1,105.0
12.116464853286743,112.0,12.2,106.0
12.216537952423096,110.0,12.3,107.0
12.31651496887207,108.0,12.4,108.0
12.416445970535278,112.0,12.5,109.0
12.51648998260498,117.0,12.6,110.0
12.61649203300476,117.0,12.7,111.0
12.715705156326294,117.0,12.8,112.0
12.815737009048462,117.0,12.9,113.0
12.916568994522095,119.0,13.0,114.0
13.015799045562744,125.0,13.1,115.0
13.115571022033691,129.0,13.2,116.0
13.216606855392456,129.0,13.3,117.0
13.316447019577026,131.0,13.4,118.0
13.416476964950562,131.0,13.5,119.0
13.51650094985962,131.0,13.6,120.0
13.615468978881836,131.0,13.7,121.0
13.716433048248291,131.0,13.8,122.0
13.816496133804321,129.0,13.9,123.0
13.91640591621399,129.0,14.0,124.0
14.016441106796265,131.0,14.1,125.0
14.116449117660522,133.0,14.2,126.0
14.215461015701294,134.0,14.3,127.0
14.316249132156372,133.0,14.4,128.0
14.416476964950562,133.0,14.5,129.0
14.516494989395142,134.0,14.6,130.0
14.61664891242981,136.0,14.7,130.0
14.716468095779419,136.0,14.8,130.0
14.81563115119934,134.0,14.9,130.0
14.91643500328064,134.0,15.0,130.0
15.015483140945435,134.0,15.1,130.0
15.116350889205933,131.0,15.2,130.0
15.215468168258667,131.0,15.3,130.0
15.316467046737671,131.0,15.4,130.0
15.416406869888306,129.0,15.5,130.0
15.515671968460083,129.0,15.6,130.0
15.615512132644653,131.0,15.7,130.0
15.716388940811157,131.0,15.8,130.0
15.816415071487427,133.0,15.9,130.0
15.916474103927612,134.0,16.0,130.0
16.016360998153687,134.0,16.1,130.0
16.116504907608032,136.0,16.2,130.0
16.21651601791382,134.0,16.3,130.0
16.316359996795654,134.0,16.4,130.0
16.416388034820557,136.0,16.5,130.0
16.51646399497986,134.0,16.6,130.0
16.61635994911194,134.0,16.7,130.0
16.715585947036743,136.0,16.8,130.0
16.81642198562622,136.0,16.9,130.0
16.917695999145508,138.0,17.0,130.0
17.01638102531433,138.0,17.1,130.0
17.116436004638672,138.0,17.2,130.0
17.216359853744507,138.0,17.3,130.0
17.316375970840454,138.0,17.4,130.0
17.416448831558228,138.0,17.5,130.0
17.51636004447937,140.0,17.6,130.0
17.61639404296875,140.0,17.7,131.0
17.716461896896362,142.0,17.8,132.0
17.816329956054688,142.0,17.9,133.0
17.916362047195435,142.0,18.0,134.0
18.015506982803345,142.0,18.1,135.0
18.116369009017944,140.0,18.2,136.0
18.21639394760132,140.0,18.3,137.0
18.316426992416382,140.0,18.4,138.0
18.416367053985596,140.0,18.5,139.0
18.51636505126953,140.0,18.6,140.0
18.616419076919556,140.0,18.7,141.0
18.716341972351074,142.0,18.8,142.0
18.815598011016846,148.0,18.9,143.0
18.91639494895935,148.0,19.0,144.0
19.016327142715454,150.0,19.1,145.0
19.116370916366577,159.0,19.2,146.0
19.216345071792603,157.0,19.3,147.0
19.315382957458496,155.0,19.4,148.0
19.416494131088257,155.0,19.5,149.0
19.515384912490845,155.0,19.6,150.0
19.616295099258423,155.0,19.7,151.0
19.716327905654907,157.0,19.8,152.0
19.816434144973755,155.0,19.9,153.0
19.91632604598999,157.0,20.0,154.0
20.016438007354736,155.0,20.1,155.0
20.11639904975891,157.0,20.2,156.0
20.21631407737732,157.0,20.3,157.0
20.31632113456726,157.0,20.4,158.0
20.416499853134155,157.0,20.5,159.0
20.51628804206848,157.0,20.6,160.0
20.616286993026733,157.0,20.7,160.0
20.716387033462524,157.0,20.8,160.0
20.816282033920288,157.0,20.9,160.0
20.916322946548462,157.0,21.0,160.0
21.016331911087036,157.0,21.1,160.0
21.116269826889038,157.0,21.2,160.0
21.21628212928772,157.0,21.3,160.0
21.316385984420776,155.0,21.4,160.0
21.4162540435791,155.0,21.5,160.0
21.51631808280945,155.0,21.6,160.0
21.616364002227783,153.0,21.7,160.0
21.71627402305603,153.0,21.8,160.0
21.815995931625366,152.0,21.9,160.0
21.915290117263794,153.0,22.0,160.0
22.016252040863037,152.0,22.1,160.0
22.116294145584106,152.0,22.2,160.0
22.216408014297485,153.0,22.3,160.0
22.3162260055542,153.0,22.4,160.0
22.416259050369263,155.0,22.5,160.0
22.51628088951111,155.0,22.6,160.0
22.616250038146973,157.0,22.7,160.0
22.716243982315063,157.0,22.8,160.0
22.815582036972046,157.0,22.9,160.0
22.91622495651245,159.0,23.0,160.0
23.016247987747192,161.0,23.1,160.0
23.1164071559906,161.0,23.2,160.0
23.216256856918335,161.0,23.3,160.0
23.31553602218628,163.0,23.4,160.0
23.416300058364868,163.0,23.5,160.0
23.516238927841187,165.0,23.6,160.0
23.616225004196167,167.0,23.7,161.0
23.716280937194824,167.0,23.8,162.0
23.81547713279724,170.0,23.9,163.0
23.91627597808838,169.0,24.0,164.0
24.016259908676147,169.0,24.1,165.0
24.116240978240967,172.0,24.2,166.0
24.216222047805786,172.0,24.3,167.0
24.315512895584106,170.0,24.4,168.0
24.416265964508057,170.0,24.5,169.0
24.516236066818237,170.0,24.6,170.0
24.616269826889038,170.0,24.7,171.0
24.716217041015625,170.0,24.8,172.0
24.816219091415405,172.0,24.9,173.0
24.91626000404358,172.0,25.0,174.0
25.016175031661987,169.0,25.1,175.0
25.116217851638794,170.0,25.2,176.0
25.216254949569702,170.0,25.3,177.0
25.316232919692993,172.0,25.4,178.0
25.416197061538696,172.0,25.5,179.0
25.516234159469604,174.0,25.6,180.0
25.616152048110962,176.0,25.7,181.0
25.71635103225708,178.0,25.8,182.0
25.816249132156372,184.0,25.9,183.0
25.916168928146362,180.0,26.0,184.0
26.016191005706787,178.0,26.1,185.0
26.116322994232178,180.0,26.2,186.0
26.21629309654236,178.0,26.3,187.0
26.31570315361023,178.0,26.4,188.0
26.416241884231567,178.0,26.5,189.0
26.516177892684937,178.0,26.6,190.0
26.61618208885193,178.0,26.7,190.0
26.716191053390503,180.0,26.8,190.0
26.815315008163452,180.0,26.9,190.0
26.91616201400757,180.0,27.0,190.0
27.01621103286743,180.0,27.1,190.0
27.116155862808228,176.0,27.2,190.0
27.21619486808777,176.0,27.3,190.0
27.31622815132141,182.0,27.4,190.0
27.41615605354309,182.0,27.5,190.0
27.51629400253296,180.0,27.6,190.0
27.615680932998657,182.0,27.7,190.0
27.716283082962036,184.0,27.8,190.0
27.816357851028442,186.0,27.9,190.0
27.91624903678894,197.0,28.0,190.0
28.0163471698761,197.0,28.1,190.0
28.115208864212036,195.0,28.2,190.0
28.21647596359253,199.0,28.3,190.0
28.316269159317017,193.0,28.4,190.0
28.416414976119995,189.0,28.5,190.0
28.516441106796265,191.0,28.6,190.0
28.616338968276978,191.0,28.7,190.0
28.71627116203308,189.0,28.8,190.0
28.816316843032837,189.0,28.9,190.0
28.91612982749939,195.0,29.0,190.0
29.01618504524231,193.0,29.1,190.0
29.116266012191772,193.0,29.2,190.0
29.215521097183228,193.0,29.3,190.0
29.31666398048401,193.0,29.4,190.0
29.416213035583496,193.0,29.5,190.0
29.515269994735718,193.0,29.6,190.0
29.616161108016968,195.0,29.7,191.0
29.716205835342407,195.0,29.8,192.0
29.816034078598022,193.0,29.9,193.0
29.916059970855713,195.0,30.0,194.0
30.01610016822815,193.0,30.1,195.0
30.116039991378784,195.0,30.2,196.0
30.216052055358887,195.0,30.3,197.0
30.316293954849243,199.0,30.4,198.0
30.416080951690674,199.0,30.5,199.0
30.51608896255493,199.0,30.6,200.0
30.61640501022339,199.0,30.7,201.0
30.716073036193848,201.0,30.8,202.0
30.81607699394226,203.0,30.9,203.0
30.91515302658081,206.0,31.0,204.0
31.016074895858765,208.0,31.1,205.0
31.11608099937439,206.0,31.2,206.0
31.21614384651184,206.0,31.3,207.0
31.316071033477783,208.0,31.4,208.0
31.41607689857483,212.0,31.5,209.0
31.51613998413086,212.0,31.6,210.0
31.61608099937439,212.0,31.7,211.0
31.716076135635376,210.0,31.8,212.0
31.816115140914917,210.0,31.9,213.0
31.916288137435913,212.0,32.0,214.0
32.01604390144348,214.0,32.1,215.0
32.11619997024536,214.0,32.2,216.0
32.21605086326599,212.0,32.3,217.0
32.31605792045593,210.0,32.4,218.0
32.41612195968628,212.0,32.5,219.0
32.516026973724365,212.0,32.6,220.0
32.61616015434265,214.0,32.7,220.0
32.71612000465393,214.0,32.8,220.0
32.81604599952698,214.0,32.9,220.0
32.915786027908325,220.0,33.0,220.0
33.015148878097534,218.0,33.1,220.0
33.11603283882141,218.0,33.2,220.0
33.21614694595337,222.0,33.3,220.0
33.31610083580017,222.0,33.4,220.0
33.416123151779175,223.0,33.5,220.0
33.51604104042053,223.0,33.6,220.0
33.616081953048706,222.0,33.7,220.0
33.71603512763977,222.0,33.8,220.0
33.81602883338928,220.0,33.9,220.0
33.916102170944214,220.0,34.0,220.0
34.01601696014404,218.0,34.1,220.0
34.1160249710083,220.0,34.2,220.0
34.21606516838074,220.0,34.3,220.0
34.31601595878601,220.0,34.4,220.0
34.41603112220764,222.0,34.5,220.0
34.51613116264343,222.0,34.6,220.0
34.61603283882141,220.0,34.7,220.0
34.716017961502075,218.0,34.8,220.0
34.81605792045593,220.0,34.9,220.0
34.916022062301636,223.0,35.0,220.0
35.01601195335388,223.0,35.1,220.0
35.11604595184326,223.0,35.2,220.0
35.215994119644165,220.0,35.3,220.0
35.31600213050842,222.0,35.4,220.0
35.41624903678894,223.0,35.5,220.0
35.51567816734314,225.0,35.6,220.0
35.61599516868591,225.0,35.7,221.0
35.71528100967407,225.0,35.8,222.0
35.81598401069641,225.0,35.9,223.0
35.916017055511475,225.0,36.0,224.0
36.01604104042053,225.0,36.1,225.0
36.11596202850342,233.0,36.2,226.0
36.216012954711914,233.0,36.3,227.0
36.31605505943298,233.0,36.4,228.0
36.41600298881531,237.0,36.5,229.0
36.51599192619324,237.0,36.6,230.0
36.61602807044983,237.0,36.7,231.0
36.71597504615784,233.0,36.8,232.0
36.81613087654114,231.0,36.9,233.0
36.91507411003113,231.0,37.0,234.0
37.015944957733154,231.0,37.1,235.0
37.115959882736206,233.0,37.2,236.0
37.21599888801575,231.0,37.3,237.0
37.31595587730408,233.0,37.4,238.0
37.415980100631714,235.0,37.5,239.0
37.516034841537476,237.0,37.6,240.0
37.616016149520874,237.0,37.7,241.0
37.71597099304199,237.0,37.8,242.0
37.81609606742859,239.0,37.9,243.0
37.91595005989075,244.0,38.0,244.0
38.015949010849,244.0,38.1,245.0
38.11623787879944,246.0,38.2,246.0
38.215965032577515,244.0,38.3,247.0
38.31594705581665,244.0,38.4,248.0
38.415229082107544,244.0,38.5,249.0
38.51598000526428,259.0,38.6,250.0
38.615967988967896,261.0,38.7,250.0
38.71600103378296,256.0,38.8,250.0
38.81592917442322,254.0,38.9,250.0
38.91595816612244,254.0,39.0,250.0
39.01600694656372,250.0,39.1,250.0
39.11592888832092,248.0,39.2,250.0
39.215935945510864,250.0,39.3,250.0
39.316092014312744,248.0,39.4,250.0
39.41598916053772,248.0,39.5,250.0
39.515913009643555,246.0,39.6,250.0
39.6160409450531,244.0,39.7,250.0
39.71592593193054,244.0,39.8,250.0
39.815922021865845,246.0,39.9,250.0
39.9159779548645,246.0,40.0,250.0
40.0158851146698,246.0,40.1,250.0
40.115926027297974,244.0,40.2,250.0
40.21560096740723,242.0,40.3,250.0
40.31589603424072,241.0,40.4,250.0
40.41590404510498,241.0,40.5,250.0
40.51595711708069,241.0,40.6,250.0
40.61601901054382,241.0,40.7,250.0
40.71518898010254,242.0,40.8,250.0
40.814947843551636,244.0,40.9,250.0
40.91514611244202,246.0,41.0,250.0
41.015888929367065,248.0,41.1,250.0
41.1159508228302,248.0,41.2,250.0
41.215973138809204,248.0,41.3,250.0
41.31601881980896,248.0,41.4,250.0
41.415948152542114,250.0,41.5,250.0
41.515867948532104,254.0,41.6,250.0
41.61591196060181,263.0,41.7,251.0
41.715927839279175,259.0,41.8,252.0
41.81585097312927,259.0,41.9,253.0
41.91594910621643,261.0,42.0,254.0
42.01591992378235,263.0,42.1,255.0
42.115888833999634,263.0,42.2,256.0
42.21588206291199,265.0,42.3,257.0
42.31592106819153,265.0,42.4,258.0
42.41585087776184,265.0,42.5,259.0
42.51593899726868,265.0,42.6,260.0
42.61591100692749,265.0,42.7,261.0
42.71584105491638,267.0,42.8,262.0
42.81589198112488,267.0,42.9,263.0
42.915984869003296,265.0,43.0,264.0
43.01537489891052,265.0,43.1,265.0
43.11586785316467,265.0,43.2,266.0
43.215912103652954,265.0,43.3,267.0
43.31487011909485,267.0,43.4,268.0
43.41586399078369,269.0,43.5,269.0
43.515851974487305,269.0,43.6,270.0
43.61583113670349,271.0,43.7,271.0
43.71590495109558,271.0,43.8,272.0
43.81590008735657,271.0,43.9,273.0
43.91580510139465,271.0,44.0,274.0
44.015827894210815,273.0,44.1,275.0
44.115890979766846,275.0,44.2,276.0
44.21581482887268,277.0,44.3,277.0
44.31596803665161,277.0,44.4,278.0
44.41607403755188,277.0,44.5,279.0
44.51578116416931,275.0,44.6,280.0
44.61579704284668,277.0,44.7,280.0
44.71591114997864,277.0,44.8,280.0
44.8158118724823,277.0,44.9,280.0
44.91587996482849,277.0,45.0,280.0
45.0158531665802,277.0,45.1,280.0
45.11572813987732,277.0,45.2,280.0
45.215806007385254,278.0,45.3,280.0
45.3156840801239,277.0,45.4,280.0
45.415777921676636,277.0,45.5,280.0
45.51583695411682,284.0,45.6,280.0
45.61615586280823,282.0,45.7,280.0
45.715104818344116,275.0,45.8,280.0
45.81582188606262,273.0,45.9,280.0
45.91584300994873,273.0,46.0,280.0
46.01578402519226,273.0,46.1,280.0
46.11578297615051,273.0,46.2,280.0
46.21584105491638,273.0,46.3,280.0
46.31579303741455,277.0,46.4,280.0
46.415783166885376,275.0,46.5,280.0
46.515772104263306,277.0,46.6,280.0
46.61579394340515,278.0,46.7,280.0
46.71578097343445,280.0,46.8,280.0
46.81582999229431,280.0,46.9,280.0
46.91582989692688,282.0,47.0,280.0
47.015774965286255,284.0,47.1,280.0
47.11593985557556,286.0,47.2,280.0
47.21588492393494,290.0,47.3,280.0
47.315744161605835,288.0,47.4,280.0
47.4158399105072,290.0,47.5,280.0
47.51575207710266,295.0,47.6,280.0
47.61578297615051,294.0,47.7,281.0
47.71581482887268,294.0,47.8,282.0
47.815069913864136,294.0,47.9,283.0
47.91534495353699,294.0,48.0,284.0
48.01584005355835,294.0,48.1,285.0
48.11576294898987,292.0,48.2,286.0
48.21577000617981,292.0,48.3,287.0
48.31585097312927,292.0,48.4,288.0
48.41572308540344,292.0,48.5,289.0
48.51575803756714,292.0,48.6,290.0
48.61580204963684,292.0,48.7,291.0
48.71572709083557,292.0,48.8,292.0
48.8157639503479,292.0,48.9,293.0
48.91579508781433,290.0,49.0,294.0
49.015740156173706,290.0,49.1,295.0
49.11518883705139,288.0,49.2,296.0
49.215118169784546,292.0,49.3,297.0
49.31579303741455,294.0,49.4,298.0
49.415729999542236,294.0,49.5,299.0
49.515772104263306,294.0,49.6,300.0
49.61572504043579,314.0,49.7,301.0
49.715739011764526,303.0,49.8,302.0
49.81525492668152,286.0,49.9,303.0
49.91580510139465,288.0,50.0,304.0
50.01574206352234,292.0,50.1,305.0
50.11591196060181,292.0,50.2,306.0
50.21569609642029,294.0,50.3,307.0
50.315704107284546,294.0,50.4,308.0
50.41578197479248,294.0,50.5,309.0
50.51526999473572,294.0,50.6,310.0
50.61570382118225,294.0,50.7,310.0
50.71572995185852,297.0,50.8,310.0
50.81575298309326,295.0,50.9,310.0
50.92413902282715,295.0,51.0,310.0
51.01575303077698,297.0,51.1,310.0
51.11567187309265,297.0,51.2,310.0
51.21569514274597,297.0,51.3,310.0
51.315865993499756,299.0,51.4,310.0
51.41567301750183,297.0,51.5,310.0
51.515799045562744,297.0,51.6,310.0
51.61607384681702,295.0,51.7,310.0
51.71569299697876,295.0,51.8,310.0
51.81518006324768,292.0,51.9,310.0
51.91498303413391,292.0,52.0,310.0
52.015669107437134,288.0,52.1,310.0
52.11567997932434,295.0,52.2,310.0
52.215773820877075,307.0,52.3,310.0
52.31573796272278,301.0,52.4,310.0
52.415668964385986,305.0,52.5,310.0
52.51573586463928,307.0,52.6,310.0
52.61566090583801,309.0,52.7,310.0
52.71570611000061,309.0,52.8,310.0
52.8156840801239,309.0,52.9,310.0
52.91564702987671,312.0,53.0,310.0
53.0156569480896,312.0,53.1,310.0
53.116278886795044,314.0,53.2,310.0
53.21585011482239,318.0,53.3,310.0
53.315622091293335,316.0,53.4,310.0
53.41493201255798,318.0,53.5,310.0
53.51565098762512,316.0,53.6,310.0
53.61566996574402,318.0,53.7,311.0
53.71571397781372,316.0,53.8,312.0
53.81573414802551,316.0,53.9,313.0
53.915684938430786,316.0,54.0,314.0
54.01570010185242,316.0,54.1,315.0
54.11564517021179,316.0,54.2,316.0
54.215651988983154,316.0,54.3,317.0
54.31570601463318,318.0,54.4,318.0
54.41566300392151,320.0,54.5,319.0
54.515669107437134,322.0,54.6,320.0
54.615723848342896,324.0,54.7,321.0
54.71561408042908,322.0,54.8,322.0
54.815776109695435,318.0,54.9,323.0
54.91565489768982,318.0,55.0,324.0
55.01622700691223,316.0,55.1,325.0
